489
482
485
503
486
479
489
469
482
486
504
465
481
489
491
491
491
472
497
491
438
470
468
472
473
477
493
459
485
470
489
479
486
482
495
488
486
488
495
499
485
481
478
476
486
485
489
478
474
491
450
469
496
463
463
452
481
488
478
491
496
496
455
492
459
499
493
488
492
488
472
477
464
506
481
477
447
468
478
496
487
478
464
486
494
490
474
491
497
487
458
464
485
498
484
473
453
494
469
499
487
468
472
492
490
487
481
489
480
478
458
476
477
492
463
478
481
476
460
461
478
462
484
486
466
482
499
487
490
486
491
449
467
498
492
449
485
469
489
470
484
485
483
483
498
469
494
480
478
473
479
490
490
483
474
469
490
494
470
473
477
502
468
488
490
474
477
484
481
470
492
483
477
478
479
489
479
498
460
494
469
477
477
477
481
499
468
496
497
477
460
489
462
492
473
459
485
481
485
471
490
464
510
474
496
498
445
459
476
492
436
491
496
466
475
460
480
458
468
484
478
483
501
480
457
469
493
479
477
490
496
471
491
476
477
475
490
471
470
497
469
484
496
451
497
462
490
462
494
494
475
487
486
466
475
484
476
485
472
474
496
457
484
483
466
486
454
485
460
466
466
484
468
483
474
472
471
492
479
481
445
498
477
456
474
477
490
481
469
472
496
480
455
480
496
494
487
481
498
498
503
482
487
474
473
491
490
494
474
483
502
447
499
496
490
492
468
473
482
478
487
487
488
459
484
474
488
470
467
490
490
483
487
487
473
478
475
461
480
481
468
473
470
480
480
498
479
468
480
495
486
478
480
486
492
481
488
482
469
459
479
468
495
457
490
478
472
455
489
482
480
455
479
495
472
497
478
497
465
480
490
489
493
477
489
462
493
473
470
488
497
486
499
479
481
503
478
482
493
483
484
474
504
500
487
487
496
491
469
487
491
470
495
478
472
467
489
472
469
490
494
476
450
493
466
477
472
493
456
505
489
472
499
468
488
489
486
483
479
486
494
450
457
473
486
495
489
487
485
490
456
480
486
485
484
457
464
495
468
466
492
478
476
467
486
483
495
484
477
472
476
479
489
470
472
451
491
496
489
480
467
490
480
491
480
457
498
487
501
491
488
489
476
502
475
443
473
474
483
470
481
479
488
462
456
433
463
475
488
481
484
468
487
491
473
481
491
485
477
485
480
470
479
479
492
486
451
483
492
494
492
476
465
500
474
483
488
481
479
472
476
481
494
458
468
450
454
490
464
500
482
494
482
477
489
462
463
493
483
490
464
480
468
470
461
498
473
479
475
483
482
475
500
491
459
474
496
458
489
481
483
479
488
476
487
476
492
468
481
479
496
486
450
479
490
465
491
483
481
479
475
491
493
497
478
488
491
491
490
480
474
491
475
483
491
451
477
473
495
482
501
470
490
495
494
482
477
493
485
481
469
483
493
469
483
461
495
487
484
486
484
491
498
483
460
492
494
482
444
465
497
462
478
498
468
501
449
473
485
492
470
496
496
470
496
476
494
497
478
467
494
456
497
445
492
486
492
469
483
477
452
460
468
472
479
471
480
481
494
494
491
494
480
484
498
472
482
468
492
485
476
489
474
482
484
481
471
456
494
476
497
477
477
464
471
472
500
475
478
479
485
489
482
450
484
486
480
465
492
466
487
489
495
495
488
475
469
486
449
496
479
474
484
497
496
465
499
485
481
469
450
487
464
492
465
473
479
451
470
487
490
491
493
483
486
477
497
486
482
484
490
475
477
487
469
460
479
473
465
481
472
477
476
460
492
474
472
468
470
496
492
491
446
469
480
487
489
475
484
490
490
484
495
480
485
469
477
470
494
453
476
493
494
466
487
483
479
496
486
484
466
473
487
477
501
450
496
487
486
471
475
439
497
473
496
476
487
485
494
483
464
494
495
497
468
492
474
470
470
493
458
490
504
490
469
497
478
478
488
502
475
487
477
486
495
488
476
493
488
494
486
484
497
488
481
477
464
466
469
480
490
466
479
459
471
483
478
478
489
461
497
467
459
486
444
485
469
498
484
492
462
468
457
480
452
486
484
489
476
482
500
477
490
475
477
491
481
484
488
468
490
475
469
463
454
492
469
474
479
470
481
489
500
484
488
494
466
475
484
478
471
487
479
487
486
497
490
461
472
483
481
465
471
498
497
480
494
435
505
482
478
478
471
466
483
488
478
477
491
471
476
500
467
485
464
494
482
463
479
492
500
482
504
483
478
495
490
468
465
502
467
467
470
486
480
464
494
489
469
484
498
501
496
474
488
456
508
431
507
497
492
501
499
465
491
484
487
492
478
485
478
489
484
463
469
490
484
436
476
473
494
495
490
479
499
495
470
486
448
492
478
489
468
446
491
502
486
488
488
480
477
488
482
467
481
499
484
496
481
478
481
480
484
489
498
472
493
459
459
466
495
473
464
476
489
460
483
488
467
461
461
484
473
468
488
468
485
479
499
462
486
462
479
500
492
459
444
483
483
471
486
475
468
497
487
488
466
455
483
491
476
471
484
473
471
499
478
484
496
472
486
504
469
466
492
491
497
490
492
485
488
489
497
462
484
483
488
478
449
492
485
472
460
482
486
473
483
476
489
484
478
477
481
489
497
492
490
468
498
479
486
466
496
496
478
473
485
481
478
487
448
461
478
492
468
463
491
497
481
485
491
460
479
465
438
487
456
488
467
488
497
459
479
488
474
477
480
484
469
492
493
474
467
470
484
458
433
476
483
488
481
478
484
479
484
472
447
484
491
488
470
488
497
477
494
489
472
484
489
484
473
457
498
487
467
472
498
472
505
494
482
483
426
476
490
476
494
469
458
467
491
496
491
472
482
484
476
477
468
466
469
487
466
484
493
492
480
480
472
485
491
477
459
475
469
466
481
492
493
481
484
495
486
489
452
488
473
472
479
486
477
486
462
482
486
485
485
487
479
472
480
475
498
484
484
467
495
490
494
497
474
487
493
491
442
467
469
442
448
475
472
492
476
483
494
498
490
451
493
479
482
480
472
490
449
487
472
468
483
446
494
481
488
458
468
494
470
467
486
485
491
482
496
474
488
476
477
460
482
487
492
478
475
483
500
473
478
485
494
469
478
493
500
493
485
469
476
464
496
469
483
468
460
474
481
492
500
492
484
458
489
483
480
499
477
484
468
486
469
498
468
484
497
495
457
486
474
461
495
474
461
487
468
470
453
491
473
483
491
483
464
493
476
480
481
490
495
457
483
481
480
484
488
445
494
491
492
466
500
445
486
491
475
489
474
453
461
475
489
497
468
481
488
497
491
483
485
456
466
492
463
470
495
468
496
476
490
490
497
481
455
484
475
496
485
466
479
473
472
480
460
484
476
461
468
490
484
498
477
478
493
497
493
484
488
472
485
468
448
497
491
470
485
494
452
484
492
477
440
480
445
454
461
466
496
493
489
464
500
487
483
463
473
498
456
493
475
481
495
494
476
465
478
466
485
494
483
487
469
499
474
478
476
487
481
476
483
467
494
499
478
490
501
460
464
446
480
484
482
488
494
496
487
492
478
503
483
484
463
461
482
468
497
487
476
462
473
484
460
486
483
493
493
472
496
475
488
473
462
479
476
482
476
470
484
468
482
476
464
470
463
487
471
477
484
503
475
481
449
491
502
493
485
452
499
468
484
487
494
427
494
471
468
486
501
500
429
490
491
461
476
493
494
481
449
486
468
486
482
487
493
474
471
489
502
481
473
475
476
480
487
476
487
504
479
486
484
492
472
487
481
491
469
497
482
494
481
477
473
481
466
470
495
492
501
495
485
444
494
469
485
475
451
477
458
478
485
488
488
491
476
474
488
465
492
458
496
481
484
488
489
479
453
478
467
485
492
457
476
461
486
479
480
477
483
494
477
497
474
469
498
488
485
478
495
487
474
472
482
475
494
473
478
496
479
468
481
491
485
461
482
492
481
502
474
498
485
482
470
467
489
481
497
464
482
489
489
478
495
498
460
468
451
484
473
465
471
474
490
490
499
469
500
478
498
478
489
484
488
490
473
478
478
480
492
462
469
477
489
494
482
472
456
472
480
478
468
468
474
489
479
486
478
497
467
459
484
485
482
485
488
487
474
458
480
493
497
476
486
474
473
494
480
467
492
489
479
491
481
474
487
493
498
493
462
456
465
487
475
437
487
479
491
473
481
483
499
456
496
493
471
481
466
479
468
490
489
467
478
466
454
473
498
466
485
3105
3761
3329
480
486
463
466
478
496
473
487
471
485
468
480
493
462
470
466
463
491
473
471
440
490
491
467
484
479
478
469
489
482
478
489
472
481
473
496
479
494
492
483
445
484
480
490
469
465
485
490
500
481
476
494
496
453
485
492
489
473
476
473
510
471
487
489
488
462
481
476
460
458
483
490
493
489
478
472
469
479
486
478
487
475
469
486
441
486
478
464
461
482
483
486
493
467
464
486
474
482
480
471
493
470
490
483
489
482
475
481
482
476
466
440
469
441
488
489
480
493
486
480
483
477
474
461
479
487
439
471
465
478
473
481
482
493
489
458
461
491
494
487
466
479
500
493
465
474
495
489
466
476
465
483
486
480
469
483
504
488
471
473
473
470
480
468
492
475
480
472
494
477
478
486
471
474
495
490
500
462
475
473
495
487
489
467
483
462
477
494
488
493
459
489
475
464
484
469
490
486
487
504
486
488
481
486
475
480
489
486
470
484
484
482
468
478
442
493
481
487
492
481
471
493
475
478
500
457
484
483
486
490
477
478
479
491
464
476
481
482
494
487
492
471
486
467
469
488
482
465
486
493
486
481
489
480
467
479
481
493
469
456
469
481
491
490
496
477
484
478
472
467
477
493
495
456
485
467
470
477
477
454
486
475
493
466
477
484
487
480
492
466
466
494
492
485
466
473
475
484
497
488
471
484
474
491
484
448
493
472
467
466
472
478
478
485
490
478
501
494
483
480
457
481
476
465
475
463
482
481
498
490
492
477
485
486
491
459
497
465
481
469
476
490
487
493
474
478
475
467
498
490
474
493
476
495
460
482
488
481
445
485
481
490
464
491
488
458
467
484
456
473
493
494
472
476
470
470
477
489
478
475
494
492
501
483
463
497
467
482
480
478
446
482
488
492
484
479
476
491
496
478
498
479
488
498
492
471
477
486
459
500
487
471
479
499
476
480
479
472
481
500
476
490
466
488
482
494
478
486
479
472
504
494
486
500
459
492
490
496
476
481
466
491
490
461
490
487
485
472
470
474
488
452
495
487
489
485
483
481
476
484
475
485
494
483
485
468
455
483
484
475
472
474
472
500
489
492
479
477
491
469
478
497
468
473
482
449
473
486
493
481
463
475
479
494
493
489
492
473
484
479
492
498
470
480
485
488
497
491
483
483
486
479
487
501
490
464
465
482
470
494
485
473
483
498
485
497
488
472
468
469
481
485
477
486
487
465
500
494
487
477
432
471
494
468
465
477
483
461
473
439
485
481
487
472
484
494
494
478
480
474
454
497
472
481
472
455
487
490
454
468
502
466
486
471
469
466
484
466
474
466
463
464
490
469
491
472
477
479
484
473
484
483
481
476
497
493
474
485
464
470
476
495
481
470
490
463
482
485
482
487
482
490
471
456
484
485
460
493
477
484
486
474
489
468
488
452
481
460
480
472
473
493
477
483
457
486
499
485
474
458
470
464
481
496
472
475
461
493
460
481
480
478
461
470
483
470
486
480
501
488
488
489
462
496
486
463
459
485
485
476
473
479
480
474
487
483
492
465
462
498
491
480
496
482
487
461
489
476
477
464
494
456
468
468
499
471
492
455
458
481
493
492
485
477
476
471
472
488
483
469
483
468
474
472
456
495
453
476
483
474
479
473
485
463
471
497
492
466
500
488
485
476
478
475
477
489
473
479
445
483
478
479
483
465
482
473
465
491
477
488
473
482
476
481
482
460
489
478
473
497
478
497
500
498
470
484
483
481
468
480
494
464
497
498
472
463
477
457
494
490
502
477
484
476
487
476
478
482
485
466
500
491
479
493
485
451
497
484
496
471
500
494
474
473
483
488
464
458
493
478
494
484
488
489
496
475
476
459
487
489
479
463
463
482
471
504
496
497
490
487
484
483
493
497
472
477
493
491
491
488
478
495
480
488
474
483
493
489
473
455
489
485
493
488
481
481
492
451
477
477
468
487
487
471
477
483
489
478
474
481
478
488
493
474
495
475
473
486
486
491
477
476
470
472
479
470
487
478
464
503
453
477
466
462
491
490
457
471
490
477
490
492
480
473
466
488
476
486
483
478
489
477
478
478
476
485
473
485
481
485
499
475
492
491
464
490
480
500
465
487
479
486
486
471
482
489
452
458
497
448
459
460
477
494
464
487
506
476
492
497
487
479
479
470
475
480
459
480
482
495
482
477
480
472
478
497
456
494
463
471
486
489
477
488
474
487
475
488
471
474
479
457
472
458
486
468
491
476
491
461
487
497
466
497
480
476
479
483
462
464
487
471
477
457
491
497
492
478
467
454
467
489
493
457
497
489
479
486
498
483
492
471
494
481
494
486
502
483
469
475
489
481
480
494
494
484
477
491
490
475
493
471
500
483
498
473
494
480
488
483
470
487
489
485
477
478
473
492
492
473
492
481
488
487
483
490
476
492
487
473
480
469
498
480
474
481
499
490
471
468
484
474
498
462
473
490
472
495
494
480
486
489
491
465
462
478
490
478
484
463
450
481
490
491
482
464
489
471
491
483
460
493
489
490
472
470
484
489
479
491
496
482
476
454
484
478
489
484
485
489
487
471
455
494
486
477
468
472
455
478
485
487
480
474
470
472
461
488
489
488
470
495
462
450
488
460
477
491
466
472
489
505
500
460
491
471
492
475
482
458
470
482
491
478
485
474
478
468
489
481
486
485
478
495
486
482
477
498
482
492
478
475
474
494
490
483
476
486
493
461
490
472
489
490
470
475
489
477
482
473
483
485
474
460
471
469
478
481
472
485
470
463
484
470
477
483
465
480
476
468
477
486
489
461
488
469
478
459
468
451
485
489
480
488
485
482
491
496
480
496
489
473
450
489
441
461
486
486
492
474
488
473
488
476
488
462
447
499
474
471
494
478
468
475
494
492
465
477
467
475
489
460
499
468
467
465
490
486
473
467
500
473
455
501
483
494
479
481
476
468
500
484
476
500
477
459
476
484
488
483
485
485
494
455
483
466
481
477
484
466
465
459
482
488
476
482
496
489
487
443
495
477
484
489
488
493
473
485
488
469
463
487
489
477
487
498
486
494
469
489
481
499
470
497
493
474
486
471
492
486
482
498
471
494
453
485
468
497
473
481
473
484
489
493
480
465
487
469
480
449
486
481
481
480
491
485
484
490
480
495
490
508
473
467
475
497
478
488
497
487
490
479
476
490
471
484
493
469
453
464
473
481
468
467
459
493
485
481
467
474
490
495
488
455
497
451
495
484
465
492
489
481
482
497
477
472
464
481
475
469
493
483
495
464
474
491
478
478
460
492
484
492
489
476
473
492
491
478
488
439
493
495
464
468
465
491
480
488
484
480
497
470
499
489
484
479
470
475
492
490
475
464
487
493
492
475
484
498
488
468
495
488
459
483
465
494
491
482
493
473
488
469
487
490
482
479
464
491
474
481
473
473
487
475
475
499
494
472
492
478
485
487
474
459
485
472
461
493
483
469
491
461
464
487
479
495
472
483
488
475
487
503
466
485
474
487
483
477
494
447
466
496
487
477
480
471
470
471
457
493
474
477
486
476
481
492
478
478
490
455
487
487
450
460
484
485
483
476
496
497
478
486
483
488
494
477
500
482
479
468
485
489
484
476
499
482
480
479
473
489
464
483
493
485
501
475
467
487
491
471
464
488
486
495
479
476
486
499
475
486
452
478
489
471
485
496
493
478
487
465
473
493
485
488
478
489
493
462
486
477
491
464
489
477
491
479
473
483
481
497
489
487
493
486
490
490
487
462
485
475
486
499
468
475
475
490
468
469
459
464
482
478
477
493
480
495
493
469
477
489
474
480
488
500
496
492
474
478
462
494
475
461
481
471
457
490
490
482
473
467
480
470
473
476
463
476
482
490
472
496
484
494
472
487
476
478
480
495
469
504
493
493
482
495
487
501
492
472
499
464
462
493
491
483
483
482
465
465
489
472
455
489
493
490
464
463
492
483
478
465
477
478
459
464
480
472
477
485
493
479
492
479
487
465
490
499
476
454
491
476
471
481
484
488
470
478
490
475
493
475
489
490
457
468
461
485
472
458
460
486
490
492
490
496
482
479
474
476
482
472
467
491
473
477
473
468
500
480
449
485
488
467
460
461
486
478
469
478
489
490
474
470
486
496
482
494
474
504
479
485
471
491
489
499
487
473
478
486
486
488
489
485
472
476
494
490
473
472
483
488
478
502
496
498
472
479
486
498
480
440
460
489
488
476
501
487
495
484
463
476
481
482
491
443
488
479
498
459
493
469
491
479
494
486
482
490
488
473
462
491
446
482
492
456
473
473
478
503
492
471
467
490
464
485
480
483
484
467
502
482
467
480
497
491
460
479
476
493
490
466
495
462
490
474
500
468
455
480
487
489
440
481
476
482
471
493
473
470
463
494
479
482
493
463
491
493
472
464
485
498
484
472
487
472
483
489
489
478
479
491
481
498
488
476
491
475
489
473
504
480
464
453
496
484
491
476
474
463
464
461
491
490
476
458
477
469
493
471
468
482
497
484
482
478
477
500
469
501
463
478
496
489
495
484
483
461
470
465
483
466
489
478
491
500
488
472
488
491
496
480
479
444
467
489
435
460
475
491
460
441
478
482
483
477
455
485
489
469
490
490
497
466
470
476
486
462
463
489
489
473
482
488
480
470
480
483
485
496
494
467
445
477
479
460
489
484
478
489
488
486
489
494
492
487
488
498
487
484
489
471
482
496
478
497
478
491
456
473
479
466
497
467
478
490
474
489
487
483
474
484
488
465
477
473
469
484
480
482
459
470
469
493
478
494
491
490
497
473
498
502
494
481
494
482
473
469
496
487
492
463
479
498
490
477
468
484
484
478
464
487
475
446
472
469
456
475
469
486
478
490
487
463
491
450
485
462
483
491
485
494
496
478
479
487
485
491
475
471
502
490
479
481
466
470
473
491
486
490
478
482
465
449
464
460
492
494
486
483
484
493
482
465
486
468
487
491
477
486
475
466
494
483
493
475
466
481
477
482
483
473
488
466
460
452
494
488
463
466
469
471
484
488
481
482
466
484
471
489
464
479
491
493
479
485
490
476
465
473
478
483
475
462
481
482
474
485
486
485
471
492
478
466
478
466
475
479
485
485
468
476
485
487
494
475
484
492
460
479
477
489
472
477
475
497
497
488
457
473
460
492
479
454
478
480
482
493
480
481
462
489
481
477
454
455
500
487
483
503
487
472
455
496
470
490
482
492
481
483
456
480
488
492
477
487
463
496
496
466
486
505
491
477
497
480
470
466
460
488
478
473
467
474
471
489
490
484
486
492
478
471
491
435
468
485
485
493
495
481
489
487
481
463
458
486
488
471
498
498
464
489
496
492
489
489
478
440
475
479
480
468
467
500
482
502
491
471
489
485
482
478
476
452
490
478
475
489
478
491
455
473
498
486
490
481
486
480
495
479
487
490
494
468
485
480
483
498
479
468
488
460
490
484
490
481
461
470
488
459
480
481
481
495
461
486
480
458
495
487
482
469
485
490
510
485
469
477
485
488
487
441
467
488
479
493
490
474
478
480
472
483
481
494
487
489
505
464
491
482
468
487
480
491
482
491
491
490
493
453
484
472
473
497
485
492
447
482
487
485
492
481
489
493
491
492
474
482
489
464
477
489
487
469
477
473
501
492
479
492
474
493
490
446
493
474
477
491
453
478
495
489
488
453
488
469
488
476
480
486
480
480
490
472
497
486
478
467
462
497
472
485
471
476
464
474
459
484
473
461
480
467
459
495
481
466
494
460
485
486
487
450
487
488
490
470
470
474
475
484
488
478
487
484
470
479
475
491
470
488
492
469
487
471
481
478
499
481
476
493
478
454
487
483
493
488
482
487
484
478
494
486
471
474
482
470
480
482
454
493
473
500
491
485
472
488
483
469
491
482
486
454
481
458
476
468
478
493
460
488
475
489
489
453
492
470
462
489
463
476
490
494
488
482
464
475
474
488
476
485
481
473
468
468
483
475
491
479
486
468
488
470
469
499
489
498
473
482
473
489
483
480
488
477
496
472
482
493
489
478
475
486
484
479
483
469
483
487
481
482
477
483
492
487
465
454
456
459
482
466
490
480
458
479
473
484
473
491
471
480
485
490
480
454
493
495
484
448
476
479
484
474
470
499
495
487
483
490
494
493
484
479
492
486
478
488
483
470
499
486
474
486
489
488
485
483
478
470
482
488
471
475
477
497
479
469
478
476
478
476
490
490
482
473
486
484
476
486
480
488
472
495
465
447
471
469
477
475
475
485
446
489
488
490
484
497
489
464
479
483
497
476
480
468
466
478
488
494
488
489
471
449
479
479
486
479
461
488
471
483
474
470
489
488
476
501
484
478
481
481
461
481
475
458
485
485
467
499
471
481
480
473
472
479
454
478
463
451
492
471
455
485
487
497
484
474
484
480
475
499
480
477
493
495
492
493
493
475
478
478
472
467
469
477
469
481
482
464
471
471
483
489
476
480
497
485
476
484
481
487
475
492
474
491
485
474
503
484
482
464
484
492
490
465
467
499
479
464
494
499
473
465
474
476
495
480
449
478
472
474
485
467
482
481
497
484
472
483
468
480
486
483
490
484
469
480
465
475
491
479
487
478
499
470
492
483
478
475
468
478
477
481
476
459
480
460
497
493
487
481
479
473
483
480
467
453
492
464
493
474
487
471
489
476
458
484
497
473
472
489
476
494
473
491
483
458
461
459
497
489
494
462
471
470
495
491
487
494
484
481
489
469
484
463
490
459
478
490
480
475
484
483
489
498
485
485
492
473
493
482
482
490
482
494
489
466
490
462
471
490
490
483
456
479
473
480
476
478
475
470
472
468
477
486
467
497
456
477
501
479
468
478
467
488
460
488
486
491
485
491
470
485
487
502
480
465
481
461
476
484
443
489
486
487
497
473
465
497
479
469
483
485
464
493
472
459
469
476
482
474
478
457
477
469
479
489
485
488
481
468
473
490
492
486
477
498
490
479
458
481
465
497
481
456
454
466
457
476
465
472
476
469
463
483
449
478
478
496
477
487
476
499
476
487
474
486
478
474
486
485
492
473
481
478
454
479
473
444
484
476
492
495
477
488
459
483
482
475
502
492
488
475
494
485
479
473
475
492
495
477
484
482
499
469
484
471
485
495
489
478
482
491
488
495
482
494
459
485
490
483
497
485
462
501
474
486
487
483
495
478
484
479
480
436
467
484
478
483
431
476
496
479
490
485
482
468
490
479
493
502
480
490
476
475
490
502
467
463
482
444
481
492
497
471
471
492
486
485
491
482
456
465
474
488
488
477
477
486
494
470
462
438
478
483
490
499
474
479
458
486
481
475
495
474
478
489
484
502
485
489
492
469
479
489
475
451
482
493
466
479
463
477
457
484
480
460
482
473
484
479
478
484
477
487
479
490
498
498
486
482
489
457
495
482
478
495
469
460
487
477
495
475
491
495
487
469
495
480
492
493
479
494
498
464
489
482
483
497
494
486
461
482
474
492
493
480
475
480
492
491
478
477
486
460
474
488
496
501
456
493
473
482
470
469
485
482
460
486
481
483
488
498
497
494
484
472
486
485
486
490
491
478
481
468
485
490
476
487
495
467
486
495
479
479
484
469
486
494
494
488
479
490
494
481
487
477
484
486
496
484
489
475
478
491
469
482
466
482
487
464
480
477
485
479
464
479
486
487
490
483
483
483
492
499
474
486
475
484
487
473
473
497
479
475
472
500
488
495
465
471
479
470
489
477
472
487
489
458
484
474
455
483
486
478
458
480
497
493
492
466
476
477
493
498
485
493
475
492
490
488
479
474
471
497
470
478
479
489
487
477
485
502
482
489
488
478
478
460
491
494
482
485
494
466
477
496
467
480
474
485
493
478
479
441
436
471
467
484
490
478
479
458
481
473
470
488
477
482
488
474
479
484
478
486
472
482
486
474
478
475
461
483
494
489
490
491
481
496
475
488
477
490
486
488
483
481
486
490
493
487
480
484
488
493
494
474
489
469
480
483
498
492
496
483
490
494
493
485
485
493
482
497
492
495
476
476
494
494
478
489
493
494
496
477
475
490
487
486
481
479
497
482
480
505
480
486
486
490
487
477
485
482
471
486
501
487
495
470
481
479
472
481
497
477
495
488
487
473
482
480
484
490
479
478
487
492
481
482
486
481
462
484
468
495
480
494
489
481
474
482
497
480
490
484
487
488
470
477
482
485
488
483
488
474
486
486
490
493
490
476
487
483
472
486
493
487
467
494
489
499
481
487
491
493
479
490
483
486
504
492
495
482
478
490
482
491
486
496
478
470
482
498
492
484
481
492
482
481
486
488
495
493
474
484
492
484
491
475
489
498
492
484
475
479
478
490
477
499
489
465
489
486
487
481
485
491
479
497
483
486
484
479
494
484
492
486
489
484
495
487
493
491
492
489
489
487
494
488
491
475
480
486
468
492
488
493
491
484
492
479
486
491
482
494
488
495
476
472
493
480
483
473
483
481
475
477
490
478
489
472
461
479
491
489
478
485
475
478
480
483
469
479
490
484
479
478
489
461
487
487
482
490
483
496
483
488
477
482
493
491
477
494
487
497
492
483
482
472
485
483
483
475
480
485
479
486
482
472
479
483
479
480
489
486
499
477
468
478
481
481
491
471
488
479
487
481
488
487
484
483
484
480
476
492
491
480
486
474
489
488
482
480
486
490
480
494
487
487
489
479
481
489
485
449
477
481
468
483
483
485
485
485
484
476
480
475
486
486
492
486
488
476
482
475
490
480
468
475
477
488
471
486
491
479
481
481
478
489
476
490
485
486
486
492
468
477
490
493
478
469
491
480
485
476
479
496
488
477
490
478
489
476
478
491
493
475
486
486
484
476
486
483
480
482
488
491
485
488
487
495
471
489
484
478
484
488
475
480
476
481
472
486
489
482
483
486
480
486
486
472
483
481
470
486
486
485
476
487
479
487
491
488
488
482
490
484
486
479
483
484
478
474
478
482
478
464
482
486
482
482
485
481
482
488
482
490
479
483
481
486
486
482
482
490
